# size in energy 2849
# s [GeV^2] - sigma [mbarn] - phi(s) [GeV^4 mbarn]
1.16477e+00, 2.65723e-04, 0.00000e+00
1.16641e+00, 1.26808e-03, 0.00000e+00
1.16806e+00, 3.59997e-03, 3.60020e-07
1.16972e+00, 6.20270e-03, 1.40941e-06
1.17139e+00, 8.96379e-03, 3.76032e-06
1.17307e+00, 1.18314e-02, 7.42323e-06
1.17476e+00, 1.47744e-02, 1.25228e-05
1.17646e+00, 1.77714e-02, 1.91199e-05
1.17817e+00, 2.08071e-02, 2.72823e-05
1.17989e+00, 2.38698e-02, 3.70720e-05
1.18162e+00, 2.69501e-02, 4.85559e-05
1.18336e+00, 3.00408e-02, 6.17467e-05
1.18511e+00, 3.31357e-02, 7.67263e-05
1.18687e+00, 3.62300e-02, 9.35142e-05
1.18864e+00, 3.93195e-02, 1.12176e-04
1.19042e+00, 4.24009e-02, 1.32725e-04
1.19221e+00, 4.54712e-02, 1.55201e-04
1.19401e+00, 4.85281e-02, 1.79661e-04
1.19582e+00, 5.15697e-02, 2.06117e-04
1.19764e+00, 5.45942e-02, 2.34628e-04
1.19947e+00, 5.76005e-02, 2.65232e-04
1.20131e+00, 6.05873e-02, 2.97926e-04
1.20317e+00, 6.35540e-02, 3.32780e-04
1.20503e+00, 6.64999e-02, 3.69788e-04
1.20691e+00, 6.94245e-02, 4.09020e-04
1.20879e+00, 7.23275e-02, 4.50507e-04
1.21069e+00, 7.52090e-02, 4.94286e-04
1.21259e+00, 7.80688e-02, 5.40340e-04
1.21451e+00, 8.09071e-02, 5.88750e-04
1.21644e+00, 8.37242e-02, 6.39546e-04
1.21838e+00, 8.65205e-02, 6.92765e-04
1.22033e+00, 8.92965e-02, 7.48438e-04
1.22229e+00, 9.20527e-02, 8.06601e-04
1.22427e+00, 9.47898e-02, 8.67288e-04
1.22625e+00, 9.75086e-02, 9.30536e-04
1.22825e+00, 1.00210e-01, 9.96378e-04
1.23026e+00, 1.02895e-01, 1.06486e-03
1.23228e+00, 1.05564e-01, 1.13607e-03
1.23431e+00, 1.08219e-01, 1.20992e-03
1.23636e+00, 1.10860e-01, 1.28660e-03
1.23841e+00, 1.13490e-01, 1.36606e-03
1.24048e+00, 1.16109e-01, 1.44836e-03
1.24256e+00, 1.18718e-01, 1.53353e-03
1.24465e+00, 1.21320e-01, 1.62170e-03
1.24675e+00, 1.23916e-01, 1.71293e-03
1.24887e+00, 1.26507e-01, 1.80708e-03
1.25099e+00, 1.29095e-01, 1.90447e-03
1.25313e+00, 1.31682e-01, 2.00489e-03
1.25528e+00, 1.34270e-01, 2.10858e-03
1.25745e+00, 1.36861e-01, 2.21558e-03
1.25963e+00, 1.39457e-01, 2.32597e-03
1.26182e+00, 1.42059e-01, 2.43971e-03
1.26402e+00, 1.44672e-01, 2.55696e-03
1.26623e+00, 1.47296e-01, 2.67769e-03
1.26846e+00, 1.49934e-01, 2.80218e-03
1.27070e+00, 1.52589e-01, 2.93028e-03
1.27296e+00, 1.55263e-01, 3.06220e-03
1.27522e+00, 1.57959e-01, 3.19800e-03
1.27750e+00, 1.60680e-01, 3.33768e-03
1.27979e+00, 1.63430e-01, 3.48152e-03
1.28210e+00, 1.66210e-01, 3.62954e-03
1.28442e+00, 1.69024e-01, 3.78181e-03
1.28675e+00, 1.71876e-01, 3.93845e-03
1.28910e+00, 1.74768e-01, 4.09956e-03
1.29146e+00, 1.77705e-01, 4.26526e-03
1.29383e+00, 1.80689e-01, 4.43580e-03
1.29622e+00, 1.83725e-01, 4.61105e-03
1.29862e+00, 1.86816e-01, 4.79139e-03
1.30103e+00, 1.89966e-01, 4.97699e-03
1.30346e+00, 1.93178e-01, 5.16769e-03
1.30590e+00, 1.96457e-01, 5.36411e-03
1.30836e+00, 1.99806e-01, 5.56591e-03
1.31083e+00, 2.03230e-01, 5.77363e-03
1.31332e+00, 2.06733e-01, 5.98739e-03
1.31582e+00, 2.10317e-01, 6.20744e-03
1.31833e+00, 2.13988e-01, 6.43357e-03
1.32086e+00, 2.17749e-01, 6.66656e-03
1.32340e+00, 2.21605e-01, 6.90639e-03
1.32596e+00, 2.25558e-01, 7.15316e-03
1.32853e+00, 2.29612e-01, 7.40724e-03
1.33112e+00, 2.33771e-01, 7.66891e-03
1.33372e+00, 2.38039e-01, 7.93818e-03
1.33634e+00, 2.42417e-01, 8.21576e-03
1.33897e+00, 2.46910e-01, 8.50167e-03
1.34162e+00, 2.51520e-01, 8.79625e-03
1.34428e+00, 2.56250e-01, 9.09973e-03
1.34696e+00, 2.61100e-01, 9.41248e-03
1.34965e+00, 2.66074e-01, 9.73474e-03
1.35236e+00, 2.71172e-01, 1.00669e-02
1.35509e+00, 2.76396e-01, 1.04095e-02
1.35783e+00, 2.81746e-01, 1.07626e-02
1.36059e+00, 2.87221e-01, 1.11269e-02
1.36336e+00, 2.92823e-01, 1.15024e-02
1.36615e+00, 2.98550e-01, 1.18895e-02
1.36895e+00, 3.04401e-01, 1.22889e-02
1.37177e+00, 3.10374e-01, 1.27010e-02
1.37461e+00, 3.16466e-01, 1.31258e-02
1.37746e+00, 3.22675e-01, 1.35637e-02
1.38033e+00, 3.28998e-01, 1.40159e-02
1.38322e+00, 3.35430e-01, 1.44819e-02
1.38612e+00, 3.41967e-01, 1.49627e-02
1.38904e+00, 3.48604e-01, 1.54589e-02
1.39198e+00, 3.55335e-01, 1.59700e-02
1.39493e+00, 3.62155e-01, 1.64973e-02
1.39790e+00, 3.69057e-01, 1.70410e-02
1.40089e+00, 3.76033e-01, 1.76014e-02
1.40390e+00, 3.83076e-01, 1.81795e-02
1.40692e+00, 3.90178e-01, 1.87748e-02
1.40996e+00, 3.97329e-01, 1.93885e-02
1.41302e+00, 4.04520e-01, 2.00206e-02
1.41609e+00, 4.11740e-01, 2.06716e-02
1.41918e+00, 4.18979e-01, 2.13421e-02
1.42229e+00, 4.26226e-01, 2.20323e-02
1.42542e+00, 4.33467e-01, 2.27424e-02
1.42857e+00, 4.40689e-01, 2.34737e-02
1.43173e+00, 4.47878e-01, 2.42255e-02
1.43492e+00, 4.55019e-01, 2.49984e-02
1.43812e+00, 4.62094e-01, 2.57929e-02
1.44134e+00, 4.69087e-01, 2.66094e-02
1.44458e+00, 4.75978e-01, 2.74481e-02
1.44783e+00, 4.82747e-01, 2.83092e-02
1.45111e+00, 4.89372e-01, 2.91928e-02
1.45441e+00, 4.95830e-01, 3.00992e-02
1.45772e+00, 5.02095e-01, 3.10284e-02
1.46105e+00, 5.08141e-01, 3.19804e-02
1.46440e+00, 5.13942e-01, 3.29552e-02
1.46778e+00, 5.19467e-01, 3.39527e-02
1.47117e+00, 5.24686e-01, 3.49734e-02
1.47458e+00, 5.29569e-01, 3.60163e-02
1.47801e+00, 5.34084e-01, 3.70820e-02
1.48146e+00, 5.38198e-01, 3.81692e-02
1.48493e+00, 5.41445e-01, 3.92783e-02
1.48842e+00, 5.40024e-01, 4.04075e-02
1.49193e+00, 5.38081e-01, 4.15534e-02
1.49546e+00, 5.35603e-01, 4.27076e-02
1.49901e+00, 5.32585e-01, 4.38700e-02
1.50258e+00, 5.29020e-01, 4.50398e-02
1.50618e+00, 5.24910e-01, 4.62167e-02
1.50979e+00, 5.20259e-01, 4.73977e-02
1.51342e+00, 5.15076e-01, 4.85827e-02
1.51708e+00, 5.09375e-01, 4.97705e-02
1.52075e+00, 5.03173e-01, 5.09589e-02
1.52445e+00, 4.96493e-01, 5.21473e-02
1.52817e+00, 4.89363e-01, 5.33343e-02
1.53191e+00, 4.81813e-01, 5.45185e-02
1.53567e+00, 4.73880e-01, 5.56985e-02
1.53945e+00, 4.65600e-01, 5.68727e-02
1.54326e+00, 4.57014e-01, 5.80408e-02
1.54709e+00, 4.48165e-01, 5.92012e-02
1.55093e+00, 4.39097e-01, 6.03525e-02
1.55481e+00, 4.29854e-01, 6.14942e-02
1.55870e+00, 4.20481e-01, 6.26254e-02
1.56262e+00, 4.11021e-01, 6.37452e-02
1.56655e+00, 4.01517e-01, 6.48529e-02
1.57052e+00, 3.92010e-01, 6.59478e-02
1.57450e+00, 3.82539e-01, 6.70294e-02
1.57851e+00, 3.73138e-01, 6.80973e-02
1.58254e+00, 3.63840e-01, 6.91515e-02
1.58659e+00, 3.54675e-01, 7.01915e-02
1.59067e+00, 3.45669e-01, 7.12169e-02
1.59477e+00, 3.36844e-01, 7.22282e-02
1.59889e+00, 3.28218e-01, 7.32249e-02
1.60304e+00, 3.19807e-01, 7.42075e-02
1.60722e+00, 3.11622e-01, 7.51757e-02
1.61141e+00, 3.03674e-01, 7.61306e-02
1.61563e+00, 2.95967e-01, 7.70715e-02
1.61988e+00, 2.88504e-01, 7.79992e-02
1.62415e+00, 2.81287e-01, 7.89138e-02
1.62844e+00, 2.74314e-01, 7.98158e-02
1.63276e+00, 2.68183e-01, 8.07054e-02
1.63710e+00, 2.63115e-01, 8.15840e-02
1.64147e+00, 2.58236e-01, 8.24543e-02
1.64586e+00, 2.53542e-01, 8.33185e-02
1.65028e+00, 2.49025e-01, 8.41768e-02
1.65473e+00, 2.44681e-01, 8.50293e-02
1.65920e+00, 2.40500e-01, 8.58762e-02
1.66370e+00, 2.36478e-01, 8.67187e-02
1.66822e+00, 2.32607e-01, 8.75561e-02
1.67277e+00, 2.28881e-01, 8.83894e-02
1.67734e+00, 2.25295e-01, 8.92186e-02
1.68194e+00, 2.21842e-01, 9.00439e-02
1.68657e+00, 2.18517e-01, 9.08661e-02
1.69122e+00, 2.15317e-01, 9.16851e-02
1.69590e+00, 2.12237e-01, 9.25016e-02
1.70061e+00, 2.09273e-01, 9.33152e-02
1.70535e+00, 2.06423e-01, 9.41267e-02
1.71011e+00, 2.03683e-01, 9.49365e-02
1.71490e+00, 2.01050e-01, 9.57445e-02
1.71972e+00, 1.98522e-01, 9.65509e-02
1.72456e+00, 1.96097e-01, 9.73566e-02
1.72944e+00, 1.93773e-01, 9.81614e-02
1.73434e+00, 1.91547e-01, 9.89656e-02
1.73927e+00, 1.89418e-01, 9.97697e-02
1.74423e+00, 1.87383e-01, 1.00574e-01
1.74922e+00, 1.85440e-01, 1.01379e-01
1.75423e+00, 1.83587e-01, 1.02184e-01
1.75928e+00, 1.81823e-01, 1.02991e-01
1.76435e+00, 1.80145e-01, 1.03798e-01
1.76945e+00, 1.78551e-01, 1.04608e-01
1.77459e+00, 1.77039e-01, 1.05419e-01
1.77975e+00, 1.75606e-01, 1.06233e-01
1.78494e+00, 1.74251e-01, 1.07049e-01
1.79017e+00, 1.72972e-01, 1.07868e-01
1.79542e+00, 1.71767e-01, 1.08691e-01
1.80070e+00, 1.70633e-01, 1.09517e-01
1.80601e+00, 1.69569e-01, 1.10347e-01
1.81136e+00, 1.68573e-01, 1.11181e-01
1.81673e+00, 1.67643e-01, 1.12020e-01
1.82214e+00, 1.68003e-01, 1.12863e-01
1.82757e+00, 1.69096e-01, 1.13714e-01
1.83304e+00, 1.70258e-01, 1.14580e-01
1.83854e+00, 1.71488e-01, 1.15461e-01
1.84407e+00, 1.72785e-01, 1.16359e-01
1.84964e+00, 1.74148e-01, 1.17274e-01
1.85523e+00, 1.75577e-01, 1.18207e-01
1.86086e+00, 1.77070e-01, 1.19158e-01
1.86652e+00, 1.78627e-01, 1.20128e-01
1.87222e+00, 1.80249e-01, 1.21118e-01
1.87794e+00, 1.81720e-01, 1.22128e-01
1.88370e+00, 1.83054e-01, 1.23159e-01
1.88949e+00, 1.84440e-01, 1.24210e-01
1.89532e+00, 1.85880e-01, 1.25281e-01
1.90118e+00, 1.87371e-01, 1.26373e-01
1.90707e+00, 1.88915e-01, 1.27486e-01
1.91300e+00, 1.90511e-01, 1.28621e-01
1.91896e+00, 1.92161e-01, 1.29779e-01
1.92496e+00, 1.93863e-01, 1.30960e-01
1.93099e+00, 1.95619e-01, 1.32165e-01
1.93705e+00, 1.97429e-01, 1.33396e-01
1.94315e+00, 1.99295e-01, 1.34652e-01
1.94929e+00, 2.01216e-01, 1.35934e-01
1.95546e+00, 2.03195e-01, 1.37244e-01
1.96167e+00, 2.05232e-01, 1.38581e-01
1.96791e+00, 2.07329e-01, 1.39948e-01
1.97419e+00, 2.09488e-01, 1.41344e-01
1.98050e+00, 2.11710e-01, 1.42772e-01
1.98685e+00, 2.13997e-01, 1.44230e-01
1.99324e+00, 2.16352e-01, 1.45722e-01
1.99966e+00, 2.18777e-01, 1.47247e-01
2.00613e+00, 2.21274e-01, 1.48807e-01
2.01263e+00, 2.21706e-01, 1.50403e-01
2.01916e+00, 2.22157e-01, 1.52031e-01
2.02574e+00, 2.22681e-01, 1.53678e-01
2.03235e+00, 2.23283e-01, 1.55348e-01
2.03900e+00, 2.23965e-01, 1.57042e-01
2.04569e+00, 2.24732e-01, 1.58760e-01
2.05242e+00, 2.25588e-01, 1.60504e-01
2.05918e+00, 2.26538e-01, 1.62274e-01
2.06599e+00, 2.27585e-01, 1.64072e-01
2.07283e+00, 2.28735e-01, 1.65899e-01
2.07972e+00, 2.29992e-01, 1.67756e-01
2.08664e+00, 2.31361e-01, 1.69644e-01
2.09361e+00, 2.32847e-01, 1.71565e-01
2.10061e+00, 2.34455e-01, 1.73521e-01
2.10765e+00, 2.36188e-01, 1.75512e-01
2.11474e+00, 2.38052e-01, 1.77540e-01
2.12186e+00, 2.40050e-01, 1.79608e-01
2.12903e+00, 2.42183e-01, 1.81717e-01
2.13624e+00, 2.44454e-01, 1.83869e-01
2.14349e+00, 2.46863e-01, 1.86065e-01
2.15078e+00, 2.49407e-01, 1.88308e-01
2.15812e+00, 2.52083e-01, 1.90600e-01
2.16549e+00, 2.54884e-01, 1.92943e-01
2.17291e+00, 2.57798e-01, 1.95339e-01
2.18038e+00, 2.60812e-01, 1.97791e-01
2.18788e+00, 2.63905e-01, 2.00298e-01
2.19543e+00, 2.67053e-01, 2.02866e-01
2.20302e+00, 2.70225e-01, 2.05493e-01
2.21066e+00, 2.73385e-01, 2.08183e-01
2.21834e+00, 2.76487e-01, 2.10936e-01
2.22606e+00, 2.79484e-01, 2.13754e-01
2.23383e+00, 2.82317e-01, 2.16635e-01
2.24164e+00, 2.84928e-01, 2.19580e-01
2.24950e+00, 2.87251e-01, 2.22589e-01
2.25741e+00, 2.89222e-01, 2.25659e-01
2.26536e+00, 2.90777e-01, 2.28787e-01
2.27335e+00, 2.91857e-01, 2.31971e-01
2.28140e+00, 2.92412e-01, 2.35207e-01
2.28948e+00, 2.92403e-01, 2.38490e-01
2.29762e+00, 2.91802e-01, 2.41814e-01
2.30580e+00, 2.90602e-01, 2.45172e-01
2.31403e+00, 2.88809e-01, 2.48559e-01
2.32231e+00, 2.86448e-01, 2.51967e-01
2.33063e+00, 2.83561e-01, 2.55392e-01
2.33900e+00, 2.80203e-01, 2.58822e-01
2.34742e+00, 2.76441e-01, 2.62256e-01
2.35589e+00, 2.72347e-01, 2.65684e-01
2.36441e+00, 2.68000e-01, 2.69104e-01
2.37298e+00, 2.63476e-01, 2.72510e-01
2.38160e+00, 2.58851e-01, 2.75898e-01
2.39026e+00, 2.54193e-01, 2.79267e-01
2.39898e+00, 2.49563e-01, 2.82615e-01
2.40775e+00, 2.45014e-01, 2.85939e-01
2.41656e+00, 2.40591e-01, 2.89241e-01
2.42543e+00, 2.36329e-01, 2.92521e-01
2.43435e+00, 2.32255e-01, 2.95778e-01
2.44332e+00, 2.28389e-01, 2.99016e-01
2.45235e+00, 2.24746e-01, 3.02236e-01
2.46142e+00, 2.21334e-01, 3.05440e-01
2.47055e+00, 2.18157e-01, 3.08631e-01
2.47973e+00, 2.15502e-01, 3.11812e-01
2.48896e+00, 2.13404e-01, 3.14985e-01
2.49825e+00, 2.11536e-01, 3.18161e-01
2.50759e+00, 2.09891e-01, 3.21343e-01
2.51698e+00, 2.08464e-01, 3.24537e-01
2.52643e+00, 2.07248e-01, 3.27743e-01
2.53594e+00, 2.06234e-01, 3.30966e-01
2.54549e+00, 2.05417e-01, 3.34209e-01
2.55511e+00, 2.04787e-01, 3.37476e-01
2.56478e+00, 2.04339e-01, 3.40767e-01
2.57450e+00, 2.04065e-01, 3.44090e-01
2.58428e+00, 2.03957e-01, 3.47444e-01
2.59412e+00, 2.04009e-01, 3.50834e-01
2.60401e+00, 2.04213e-01, 3.54262e-01
2.61396e+00, 2.04561e-01, 3.57733e-01
2.62397e+00, 2.05045e-01, 3.61248e-01
2.63404e+00, 2.05656e-01, 3.64812e-01
2.64416e+00, 2.06385e-01, 3.68426e-01
2.65434e+00, 2.07219e-01, 3.72094e-01
2.66458e+00, 2.08146e-01, 3.75819e-01
2.67488e+00, 2.09151e-01, 3.79603e-01
2.68524e+00, 2.10216e-01, 3.83448e-01
2.69566e+00, 2.11321e-01, 3.87358e-01
2.70614e+00, 2.12442e-01, 3.91333e-01
2.71668e+00, 2.13553e-01, 3.95376e-01
2.72728e+00, 2.14625e-01, 3.99487e-01
2.73795e+00, 2.15625e-01, 4.03666e-01
2.74867e+00, 2.16519e-01, 4.07915e-01
2.75945e+00, 2.17271e-01, 4.12232e-01
2.77030e+00, 2.17847e-01, 4.16613e-01
2.78122e+00, 2.18213e-01, 4.21060e-01
2.79220e+00, 2.18340e-01, 4.25574e-01
2.80323e+00, 2.18205e-01, 4.30142e-01
2.81432e+00, 2.17791e-01, 4.34761e-01
2.82549e+00, 2.17091e-01, 4.39423e-01
2.83673e+00, 2.16107e-01, 4.44133e-01
2.84802e+00, 2.14851e-01, 4.48882e-01
2.85938e+00, 2.13343e-01, 4.53659e-01
2.87080e+00, 2.11609e-01, 4.58456e-01
2.88229e+00, 2.09684e-01, 4.63276e-01
2.89385e+00, 2.07601e-01, 4.68105e-01
2.90546e+00, 2.05398e-01, 4.72948e-01
2.91717e+00, 2.03112e-01, 4.77791e-01
2.92892e+00, 2.00775e-01, 4.82649e-01
2.94074e+00, 1.98418e-01, 4.87495e-01
2.95264e+00, 1.96068e-01, 4.92343e-01
2.96461e+00, 1.93747e-01, 4.97192e-01
2.97664e+00, 1.91474e-01, 5.02041e-01
2.98875e+00, 1.89263e-01, 5.06884e-01
3.00091e+00, 1.87124e-01, 5.11728e-01
3.01316e+00, 1.85066e-01, 5.16567e-01
3.02547e+00, 1.83094e-01, 5.21416e-01
3.03785e+00, 1.81211e-01, 5.26263e-01
3.05032e+00, 1.79419e-01, 5.31116e-01
3.06283e+00, 1.77717e-01, 5.35977e-01
3.07544e+00, 1.76105e-01, 5.40841e-01
3.08811e+00, 1.74580e-01, 5.45724e-01
3.10085e+00, 1.73142e-01, 5.50613e-01
3.11367e+00, 1.71786e-01, 5.55517e-01
3.12656e+00, 1.70511e-01, 5.60439e-01
3.13953e+00, 1.69313e-01, 5.65381e-01
3.15257e+00, 1.68190e-01, 5.70344e-01
3.16569e+00, 1.67137e-01, 5.75330e-01
3.17890e+00, 1.66153e-01, 5.80342e-01
3.19216e+00, 1.65234e-01, 5.85387e-01
3.20551e+00, 1.64377e-01, 5.90455e-01
3.21892e+00, 1.63579e-01, 5.95553e-01
3.23243e+00, 1.62839e-01, 6.00683e-01
3.24600e+00, 1.62152e-01, 6.05854e-01
3.25966e+00, 1.61517e-01, 6.11055e-01
3.27340e+00, 1.60931e-01, 6.16300e-01
3.28721e+00, 1.60391e-01, 6.21584e-01
3.30112e+00, 1.59895e-01, 6.26909e-01
3.31508e+00, 1.59442e-01, 6.32284e-01
3.32913e+00, 1.59028e-01, 6.37696e-01
3.34328e+00, 1.58651e-01, 6.43161e-01
3.35749e+00, 1.58310e-01, 6.48680e-01
3.37180e+00, 1.58001e-01, 6.54241e-01
3.38618e+00, 1.57724e-01, 6.59866e-01
3.40065e+00, 1.57475e-01, 6.65536e-01
3.41519e+00, 1.57252e-01, 6.71266e-01
3.42983e+00, 1.57054e-01, 6.77050e-01
3.44454e+00, 1.56877e-01, 6.82898e-01
3.45935e+00, 1.56720e-01, 6.88802e-01
3.47425e+00, 1.56581e-01, 6.94772e-01
3.48922e+00, 1.56456e-01, 7.00809e-01
3.50427e+00, 1.56345e-01, 7.06906e-01
3.51941e+00, 1.56243e-01, 7.13065e-01
3.53465e+00, 1.56150e-01, 7.19293e-01
3.54998e+00, 1.56062e-01, 7.25592e-01
3.56539e+00, 1.55977e-01, 7.31963e-01
3.58089e+00, 1.55892e-01, 7.38399e-01
3.59648e+00, 1.55806e-01, 7.44907e-01
3.61217e+00, 1.55715e-01, 7.51489e-01
3.62793e+00, 1.55618e-01, 7.58146e-01
3.64379e+00, 1.55511e-01, 7.64868e-01
3.65976e+00, 1.55394e-01, 7.71665e-01
3.67580e+00, 1.55264e-01, 7.78545e-01
3.69194e+00, 1.55118e-01, 7.85492e-01
3.70818e+00, 1.54956e-01, 7.92514e-01
3.72450e+00, 1.54776e-01, 7.99610e-01
3.74092e+00, 1.54577e-01, 8.06780e-01
3.75743e+00, 1.54357e-01, 8.14024e-01
3.77404e+00, 1.54117e-01, 8.21342e-01
3.79074e+00, 1.53855e-01, 8.28733e-01
3.80754e+00, 1.53572e-01, 8.36197e-01
3.82445e+00, 1.53268e-01, 8.43732e-01
3.84143e+00, 1.52943e-01, 8.51347e-01
3.85852e+00, 1.52599e-01, 8.59024e-01
3.87573e+00, 1.52236e-01, 8.66780e-01
3.89301e+00, 1.51855e-01, 8.74614e-01
3.91041e+00, 1.51458e-01, 8.82508e-01
3.92790e+00, 1.51047e-01, 8.90478e-01
3.94550e+00, 1.50623e-01, 8.98517e-01
3.96320e+00, 1.50189e-01, 9.06632e-01
3.98099e+00, 1.49746e-01, 9.14813e-01
3.99889e+00, 1.49296e-01, 9.23062e-01
4.01689e+00, 1.48841e-01, 9.31385e-01
4.03499e+00, 1.48383e-01, 9.39775e-01
4.05322e+00, 1.47924e-01, 9.48241e-01
4.07153e+00, 1.47466e-01, 9.56781e-01
4.08996e+00, 1.47010e-01, 9.65389e-01
4.10848e+00, 1.46557e-01, 9.74072e-01
4.12711e+00, 1.46110e-01, 9.82823e-01
4.14586e+00, 1.45668e-01, 9.91651e-01
4.16472e+00, 1.45235e-01, 1.00056e+00
4.18367e+00, 1.44809e-01, 1.00954e+00
4.20274e+00, 1.44393e-01, 1.01859e+00
4.22192e+00, 1.43986e-01, 1.02773e+00
4.24121e+00, 1.43590e-01, 1.03694e+00
4.26061e+00, 1.43205e-01, 1.04624e+00
4.28013e+00, 1.42830e-01, 1.05561e+00
4.29976e+00, 1.42468e-01, 1.06508e+00
4.31950e+00, 1.42117e-01, 1.07462e+00
4.33935e+00, 1.41777e-01, 1.08426e+00
4.35932e+00, 1.41449e-01, 1.09398e+00
4.37942e+00, 1.41133e-01, 1.10378e+00
4.39961e+00, 1.40828e-01, 1.11369e+00
4.41993e+00, 1.40535e-01, 1.12368e+00
4.44037e+00, 1.40252e-01, 1.13377e+00
4.46091e+00, 1.39980e-01, 1.14396e+00
4.48157e+00, 1.39719e-01, 1.15423e+00
4.50237e+00, 1.39468e-01, 1.16461e+00
4.52329e+00, 1.39228e-01, 1.17509e+00
4.54431e+00, 1.38996e-01, 1.18568e+00
4.56547e+00, 1.38774e-01, 1.19637e+00
4.58674e+00, 1.38562e-01, 1.20717e+00
4.60813e+00, 1.38357e-01, 1.21806e+00
4.62965e+00, 1.38161e-01, 1.22907e+00
4.65131e+00, 1.37973e-01, 1.24020e+00
4.67308e+00, 1.37793e-01, 1.25144e+00
4.69497e+00, 1.37620e-01, 1.26279e+00
4.71699e+00, 1.37454e-01, 1.27426e+00
4.73915e+00, 1.37294e-01, 1.28584e+00
4.76142e+00, 1.37141e-01, 1.29756e+00
4.78383e+00, 1.36994e-01, 1.30939e+00
4.80637e+00, 1.36852e-01, 1.32134e+00
4.82902e+00, 1.36716e-01, 1.33342e+00
4.85182e+00, 1.36586e-01, 1.34562e+00
4.87475e+00, 1.36460e-01, 1.35796e+00
4.89781e+00, 1.36339e-01, 1.37043e+00
4.92100e+00, 1.36222e-01, 1.38303e+00
4.94433e+00, 1.36110e-01, 1.39576e+00
4.96779e+00, 1.36001e-01, 1.40863e+00
4.99139e+00, 1.35896e-01, 1.42164e+00
5.01511e+00, 1.35795e-01, 1.43480e+00
5.03898e+00, 1.35697e-01, 1.44808e+00
5.06300e+00, 1.35602e-01, 1.46152e+00
5.08713e+00, 1.35510e-01, 1.47511e+00
5.11144e+00, 1.35421e-01, 1.48883e+00
5.13585e+00, 1.35335e-01, 1.50272e+00
5.16041e+00, 1.35250e-01, 1.51674e+00
5.18513e+00, 1.35169e-01, 1.53093e+00
5.20999e+00, 1.35089e-01, 1.54527e+00
5.23497e+00, 1.35011e-01, 1.55977e+00
5.26011e+00, 1.34936e-01, 1.57442e+00
5.28541e+00, 1.34862e-01, 1.58924e+00
5.31084e+00, 1.34789e-01, 1.60423e+00
5.33642e+00, 1.34718e-01, 1.61938e+00
5.36214e+00, 1.34649e-01, 1.63469e+00
5.38800e+00, 1.34581e-01, 1.65018e+00
5.41403e+00, 1.34514e-01, 1.66582e+00
5.44021e+00, 1.34448e-01, 1.68165e+00
5.46653e+00, 1.34383e-01, 1.69766e+00
5.49301e+00, 1.34319e-01, 1.71384e+00
5.51964e+00, 1.34256e-01, 1.73020e+00
5.54642e+00, 1.34194e-01, 1.74675e+00
5.57335e+00, 1.34132e-01, 1.76347e+00
5.60044e+00, 1.34071e-01, 1.78038e+00
5.62769e+00, 1.34011e-01, 1.79748e+00
5.65511e+00, 1.33951e-01, 1.81477e+00
5.68268e+00, 1.33891e-01, 1.83226e+00
5.71039e+00, 1.33832e-01, 1.84993e+00
5.73828e+00, 1.33773e-01, 1.86780e+00
5.76633e+00, 1.33715e-01, 1.88588e+00
5.79454e+00, 1.33657e-01, 1.90416e+00
5.82289e+00, 1.33599e-01, 1.92263e+00
5.85143e+00, 1.33541e-01, 1.94130e+00
5.88012e+00, 1.33483e-01, 1.96020e+00
5.90899e+00, 1.33425e-01, 1.97930e+00
5.93804e+00, 1.33368e-01, 1.99861e+00
5.96722e+00, 1.33310e-01, 2.01816e+00
5.99658e+00, 1.33252e-01, 2.03789e+00
6.02612e+00, 1.33195e-01, 2.05786e+00
6.05583e+00, 1.33137e-01, 2.07805e+00
6.08572e+00, 1.33079e-01, 2.09846e+00
6.11576e+00, 1.33021e-01, 2.11912e+00
6.14599e+00, 1.32962e-01, 2.13998e+00
6.17639e+00, 1.32904e-01, 2.16109e+00
6.20696e+00, 1.32845e-01, 2.18243e+00
6.23772e+00, 1.32787e-01, 2.20401e+00
6.26864e+00, 1.32728e-01, 2.22583e+00
6.29974e+00, 1.32668e-01, 2.24789e+00
6.33104e+00, 1.32609e-01, 2.27019e+00
6.36251e+00, 1.32549e-01, 2.29275e+00
6.39415e+00, 1.32489e-01, 2.31556e+00
6.42597e+00, 1.32429e-01, 2.33861e+00
6.45799e+00, 1.32368e-01, 2.36192e+00
6.49019e+00, 1.32307e-01, 2.38549e+00
6.52258e+00, 1.32246e-01, 2.40933e+00
6.55516e+00, 1.32184e-01, 2.43344e+00
6.58792e+00, 1.32122e-01, 2.45781e+00
6.62087e+00, 1.32060e-01, 2.48245e+00
6.65401e+00, 1.31997e-01, 2.50736e+00
